wavelength flux uncertainty chunk
5.999999999999999778e-01 1.345859155189919942e+00 2.735867465657505770e-02 0.000000000000000000e+00
6.101296296296295774e-01 1.500351533643282664e+00 1.458726269902085523e-02 0.000000000000000000e+00
6.202592592592591769e-01 1.663946270457330678e+00 2.354010979791456432e-02 0.000000000000000000e+00
6.303888888888887765e-01 1.835311159523313806e+00 6.906043249729641210e-03 0.000000000000000000e+00
6.405185185185183760e-01 2.005010290618014501e+00 2.859906247526381243e-02 0.000000000000000000e+00
6.506481481481479756e-01 2.191453639736826275e+00 3.752712772610019426e-02 0.000000000000000000e+00
6.607777777777775752e-01 2.348348056596064826e+00 1.844696167917571350e-02 0.000000000000000000e+00
6.709074074074071747e-01 2.628543369235276650e+00 4.981174022279837021e-02 0.000000000000000000e+00
6.810370370370367743e-01 2.847915447854877158e+00 2.989733298021755858e-02 0.000000000000000000e+00
6.911666666666663739e-01 3.121135652618263201e+00 4.144151019749863635e-02 0.000000000000000000e+00
7.012962962962959734e-01 3.362111400467468592e+00 1.920274784769226278e-02 0.000000000000000000e+00
7.114259259259255730e-01 3.636028707622063649e+00 3.711802695987424100e-02 0.000000000000000000e+00
7.215555555555551726e-01 3.931242563585560568e+00 1.791721394959385621e-02 0.000000000000000000e+00
7.316851851851847721e-01 4.199885446866849392e+00 3.163141203602242574e-02 0.000000000000000000e+00
7.418148148148143717e-01 4.507326029491321329e+00 4.941418584950887233e-02 0.000000000000000000e+00
7.519444444444439712e-01 4.809278910631220150e+00 1.462551494227870737e-02 0.000000000000000000e+00
7.620740740740735708e-01 5.140641679294404298e+00 6.754152664252455196e-02 0.000000000000000000e+00
7.722037037037031704e-01 5.459554235587121163e+00 6.654361310996982637e-02 0.000000000000000000e+00
7.823333333333327699e-01 5.815507413250429636e+00 3.094643989967718698e-03 0.000000000000000000e+00
7.924629629629623695e-01 6.155807477813138640e+00 3.822637085909658811e-02 0.000000000000000000e+00
8.025925925925919691e-01 6.508827412636597920e+00 8.403487784134494598e-03 0.000000000000000000e+00
8.127222222222215686e-01 6.869459714794738936e+00 7.731798898185247848e-02 0.000000000000000000e+00
8.228518518518511682e-01 7.153395363859360145e+00 3.756569047008080642e-02 0.000000000000000000e+00
8.329814814814807677e-01 7.405238116514198943e+00 3.225500311625128548e-03 0.000000000000000000e+00
8.431111111111103673e-01 7.745322152397677407e+00 2.616946391335989511e-02 0.000000000000000000e+00
8.532407407407399669e-01 8.178757002035663248e+00 6.641429042400906479e-02 0.000000000000000000e+00
8.633703703703695664e-01 8.492974462742264308e+00 7.452388791790832967e-02 0.000000000000000000e+00
8.734999999999991660e-01 9.091533335720106024e+00 5.289924941144227843e-02 0.000000000000000000e+00
8.836296296296287656e-01 9.583990835300737032e+00 8.816957495488769725e-02 0.000000000000000000e+00
8.937592592592583651e-01 1.045357832361281325e+01 9.297139500561883707e-02 0.000000000000000000e+00
9.038888888888879647e-01 1.037525282825141737e+01 3.270476360399458132e-02 0.000000000000000000e+00
9.140185185185175643e-01 1.132240339609296953e+01 6.291917572033829675e-02 0.000000000000000000e+00
9.241481481481471638e-01 1.109259540036810066e+01 6.466185178535620304e-02 0.000000000000000000e+00
9.342777777777767634e-01 1.216420369669556223e+01 8.648082763432578257e-02 0.000000000000000000e+00
9.444074074074063629e-01 1.253007984403394737e+01 1.597639225290726356e-02 0.000000000000000000e+00
9.545370370370359625e-01 1.225519466692560400e+01 6.019120743028965465e-02 0.000000000000000000e+00
9.646666666666655621e-01 1.332162605230747587e+01 8.652083309104934006e-02 0.000000000000000000e+00
9.747962962962951616e-01 1.370012706586430440e+01 3.362237329717879947e-02 0.000000000000000000e+00
9.849259259259247612e-01 1.407036355113425330e+01 1.147049770678195829e-01 0.000000000000000000e+00
9.950555555555543608e-01 1.441974085856923793e+01 2.897049949041722444e-02 0.000000000000000000e+00
1.005185185185184071e+00 1.392571086296463001e+01 7.968531633044442786e-02 0.000000000000000000e+00
1.015314814814813449e+00 1.520162806459784122e+01 3.302283980209583247e-02 0.000000000000000000e+00
1.025444444444443270e+00 1.559966669046266929e+01 1.242111374842324867e-01 0.000000000000000000e+00
1.035574074074072648e+00 1.592499381187985108e+01 1.484350156429086603e-02 0.000000000000000000e+00
1.045703703703702470e+00 1.623405590333547011e+01 2.033651119020609896e-02 0.000000000000000000e+00
1.055833333333331847e+00 1.661080611836354493e+01 5.046297458203098663e-02 0.000000000000000000e+00
1.065962962962961669e+00 1.699020885355894706e+01 7.585452756234600802e-02 0.000000000000000000e+00
1.076092592592591046e+00 1.720659289121574886e+01 1.073731243836998500e-01 0.000000000000000000e+00
1.086222222222220868e+00 1.701609117249566694e+01 6.976768765303424658e-02 0.000000000000000000e+00
1.096351851851850245e+00 1.699141394063569166e+01 3.354076466029512482e-02 0.000000000000000000e+00
1.106481481481480067e+00 1.818622574891714549e+01 1.313335858481624319e-01 0.000000000000000000e+00
1.116611111111109444e+00 1.846847030596697437e+01 3.378208274644722842e-02 0.000000000000000000e+00
1.126740740740739266e+00 1.872227517856768486e+01 1.054749083793148773e-01 0.000000000000000000e+00
1.136870370370368644e+00 1.902933688095511044e+01 7.402899658910908065e-02 0.000000000000000000e+00
1.146999999999998465e+00 1.928752562912331570e+01 2.240630348781977310e-02 0.000000000000000000e+00
1.157129629629627843e+00 1.954801226786050350e+01 5.824016390338485061e-03 0.000000000000000000e+00
1.167259259259257664e+00 1.973288384700240883e+01 5.442722761028405409e-02 0.000000000000000000e+00
1.177388888888887042e+00 2.009713070363284260e+01 1.367414901110761694e-01 0.000000000000000000e+00
1.187518518518516863e+00 2.028051777751463902e+01 2.207069624938102700e-02 0.000000000000000000e+00
1.197648148148146241e+00 2.051224841984139147e+01 8.991007597083990055e-02 0.000000000000000000e+00
1.207777777777776063e+00 2.074529956380351692e+01 2.353829213439728382e-02 0.000000000000000000e+00
1.217907407407405440e+00 2.088615105688109352e+01 7.336957112148852211e-02 0.000000000000000000e+00
1.228037037037035262e+00 2.113298609549107354e+01 4.323106172961786731e-02 0.000000000000000000e+00
1.238166666666664639e+00 2.129141743026473677e+01 7.363361697181868004e-02 0.000000000000000000e+00
1.248296296296294461e+00 2.150507294337305808e+01 1.452588917560671544e-01 0.000000000000000000e+00
1.258425925925923838e+00 2.169641175365440233e+01 8.230653650863900550e-02 0.000000000000000000e+00
1.268555555555553660e+00 2.176507616339644002e+01 5.657443522770450733e-02 0.000000000000000000e+00
1.278685185185183038e+00 2.104161212052753882e+01 4.946745601428098604e-02 0.000000000000000000e+00
1.288814814814812859e+00 2.195913014110347916e+01 1.188275530852212630e-01 0.000000000000000000e+00
1.298944444444442237e+00 2.226242259316445171e+01 2.742984342673955231e-02 0.000000000000000000e+00
1.309074074074072058e+00 2.245915539881794487e+01 9.920755445148932150e-02 0.000000000000000000e+00
1.319203703703701436e+00 2.257255042318602278e+01 1.300584545221304122e-01 0.000000000000000000e+00
1.329333333333331257e+00 2.267795284772267195e+01 1.231778988769062916e-01 0.000000000000000000e+00
1.339462962962960635e+00 2.281229331734706989e+01 1.174048671046774017e-01 0.000000000000000000e+00
1.349592592592590456e+00 2.294980864327877867e+01 1.364837156332597834e-01 0.000000000000000000e+00
1.359722222222219834e+00 2.300775102386937476e+01 9.338975730695293909e-02 0.000000000000000000e+00
1.369851851851849656e+00 2.308988511154165124e+01 3.244127517818997525e-02 0.000000000000000000e+00
1.379981481481479033e+00 2.325519104991516173e+01 8.860138239957249251e-02 0.000000000000000000e+00
1.390111111111108855e+00 2.330743082005041700e+01 9.780231484524195412e-03 0.000000000000000000e+00
1.400240740740738232e+00 2.334702143006211017e+01 6.099951333912022322e-02 0.000000000000000000e+00
1.410370370370368054e+00 2.342879373416143096e+01 1.503952483172500687e-01 0.000000000000000000e+00
1.420499999999997431e+00 2.349745170543948092e+01 4.055046597537975694e-02 0.000000000000000000e+00
1.430629629629627253e+00 2.354091060594193152e+01 6.499298736231082230e-02 0.000000000000000000e+00
1.440759259259256631e+00 2.359474567835905745e+01 7.643136863133229153e-02 0.000000000000000000e+00
1.450888888888886452e+00 2.363039831724126572e+01 8.641352731493659456e-02 0.000000000000000000e+00
1.461018518518515830e+00 2.366818862408856106e+01 1.037811924425598581e-01 0.000000000000000000e+00
1.471148148148145651e+00 2.368705789441785114e+01 1.328914213259600186e-01 0.000000000000000000e+00
1.481277777777775029e+00 2.363296300804211469e+01 1.374208715099932698e-01 0.000000000000000000e+00
1.491407407407404850e+00 2.382927975885083072e+01 1.960714033900876063e-02 0.000000000000000000e+00
1.501537037037034228e+00 2.374128354967823995e+01 7.834308266820289024e-02 0.000000000000000000e+00
1.511666666666664050e+00 2.371179056049376044e+01 4.911534445876272054e-02 0.000000000000000000e+00
1.521796296296293427e+00 2.364818718827631372e+01 1.293011469597115937e-01 0.000000000000000000e+00
1.531925925925923249e+00 2.374492034045512767e+01 6.438892628176752508e-02 0.000000000000000000e+00
1.542055555555552626e+00 2.371570643828476577e+01 5.561328270700428150e-02 0.000000000000000000e+00
1.552185185185182448e+00 2.379263326558264779e+01 1.156828078449446962e-01 0.000000000000000000e+00
1.562314814814811825e+00 2.389325755697479892e+01 2.234472796896853908e-02 0.000000000000000000e+00
1.572444444444441647e+00 2.374717887862458809e+01 1.014023337445641854e-01 0.000000000000000000e+00
1.582574074074071024e+00 2.384710039127267933e+01 4.058323853338696545e-03 0.000000000000000000e+00
1.592703703703700846e+00 2.381814069933860978e+01 1.388937799458676847e-01 0.000000000000000000e+00
1.602833333333330224e+00 2.406663180599516849e+01 4.435846213638674346e-02 0.000000000000000000e+00
1.612962962962960045e+00 2.363082909333136072e+01 6.546594633202824920e-02 0.000000000000000000e+00
1.623092592592589423e+00 2.411361776166173598e+01 1.217134048530883056e-01 0.000000000000000000e+00
1.633222222222219244e+00 2.395454937266953976e+01 1.408958251538667827e-01 0.000000000000000000e+00
1.643351851851848622e+00 2.354251625892527144e+01 8.252609135808293417e-02 0.000000000000000000e+00
1.653481481481478443e+00 2.405213594658103204e+01 3.077005890277757436e-02 0.000000000000000000e+00
1.663611111111107821e+00 2.405617508042677244e+01 1.420055871772208933e-01 0.000000000000000000e+00
1.673740740740737643e+00 2.375942014879687036e+01 1.516984010021051321e-01 0.000000000000000000e+00
1.683870370370367020e+00 2.349068254806288891e+01 5.150084855135748235e-02 0.000000000000000000e+00
1.693999999999996842e+00 2.392313279680961102e+01 1.049551208877880643e-01 0.000000000000000000e+00
1.704129629629626219e+00 2.390861234783784539e+01 9.352500449264927740e-02 0.000000000000000000e+00
1.714259259259256041e+00 2.394659271687442370e+01 1.322655013745043240e-01 0.000000000000000000e+00
1.724388888888885418e+00 2.382385238439519171e+01 1.479746741831722279e-01 0.000000000000000000e+00
1.734518518518515240e+00 2.316431299241148167e+01 3.294020739336176590e-02 0.000000000000000000e+00
1.744648148148144617e+00 2.364386396255343570e+01 6.538115288406483316e-02 0.000000000000000000e+00
1.754777777777774439e+00 2.368830491552706263e+01 2.454703611835067079e-02 0.000000000000000000e+00
1.764907407407403817e+00 2.371557917041401353e+01 8.099860723522976647e-02 0.000000000000000000e+00
1.775037037037033638e+00 2.363990416282133822e+01 8.171780153642239919e-02 0.000000000000000000e+00
1.785166666666663016e+00 2.355124559635667580e+01 7.191410258048766546e-02 0.000000000000000000e+00
1.795296296296292837e+00 2.347765684512870266e+01 3.628632951979861992e-02 0.000000000000000000e+00
1.805425925925922215e+00 2.341426957806256581e+01 5.263745765714416408e-02 0.000000000000000000e+00
1.815555555555552036e+00 2.286635436649374498e+01 9.597227149890651121e-02 0.000000000000000000e+00
1.825685185185181414e+00 2.323941433952975899e+01 4.188216329323479759e-02 0.000000000000000000e+00
1.835814814814811236e+00 2.331509558420234285e+01 1.294038909284915828e-01 0.000000000000000000e+00
1.845944444444440613e+00 2.323350834748609017e+01 5.658943982288737462e-02 0.000000000000000000e+00
1.856074074074070435e+00 2.316921183298182996e+01 7.149318293812535752e-02 0.000000000000000000e+00
1.866203703703699812e+00 2.300302869261220451e+01 2.792866312269281712e-02 0.000000000000000000e+00
1.876333333333329634e+00 2.163407895150659854e+01 1.105514305599756414e-01 0.000000000000000000e+00
1.886462962962959011e+00 2.295848593821774841e+01 1.512670799325477322e-01 0.000000000000000000e+00
1.896592592592588833e+00 2.289578672488392641e+01 5.662941223630257870e-02 0.000000000000000000e+00
1.906722222222218210e+00 2.216982729227743931e+01 1.081215279158578429e-01 0.000000000000000000e+00
1.916851851851848032e+00 2.279248094853246798e+01 9.294418404476655071e-02 0.000000000000000000e+00
1.926981481481477410e+00 2.267828067616542853e+01 1.049523500479494914e-01 0.000000000000000000e+00
1.937111111111107231e+00 2.241044173892223412e+01 1.034520878811329841e-01 0.000000000000000000e+00
1.947240740740736609e+00 2.211222994519616947e+01 6.580811730468712206e-02 0.000000000000000000e+00
1.957370370370366430e+00 2.243209042398386899e+01 3.373896450191380542e-02 0.000000000000000000e+00
1.967499999999995808e+00 2.240693105990849077e+01 4.904786205090468781e-02 0.000000000000000000e+00
1.977629629629625629e+00 2.240010788065986347e+01 1.266104697481207075e-01 0.000000000000000000e+00
1.987759259259255007e+00 2.227006338238482641e+01 4.869037777737731526e-02 0.000000000000000000e+00
1.997888888888884829e+00 2.218115128968631211e+01 3.001117098642441458e-02 0.000000000000000000e+00
2.008018518518514206e+00 2.207057651819543054e+01 9.307006906528095258e-02 0.000000000000000000e+00
2.018148148148144028e+00 2.200585444106382838e+01 6.517904925898371227e-02 0.000000000000000000e+00
2.028277777777773405e+00 2.195743183873939941e+01 1.003556014793707818e-01 0.000000000000000000e+00
2.038407407407403227e+00 2.183170215852214113e+01 2.809323882685986658e-03 0.000000000000000000e+00
2.048537037037032604e+00 2.174001182271577903e+01 1.142634344279916947e-01 0.000000000000000000e+00
2.058666666666662426e+00 2.166919698923770454e+01 1.315100021965797394e-01 0.000000000000000000e+00
2.068796296296291803e+00 2.162767179958723673e+01 1.600828260500286159e-03 0.000000000000000000e+00
2.078925925925921625e+00 2.155486974090670316e+01 5.815287398084822978e-02 0.000000000000000000e+00
2.089055555555551003e+00 2.149464400831968192e+01 1.131841831822912904e-02 0.000000000000000000e+00
2.099185185185180824e+00 2.140767457599491763e+01 1.577247173404577527e-02 0.000000000000000000e+00
2.109314814814810202e+00 2.053281961509413378e+01 4.322964956380829886e-03 0.000000000000000000e+00
2.119444444444440023e+00 2.121893512162918327e+01 7.672827304623706934e-02 0.000000000000000000e+00
2.129574074074069401e+00 2.112903495121671327e+01 4.448933887387360869e-02 0.000000000000000000e+00
2.139703703703699222e+00 2.103540701111659672e+01 1.158619426042828554e-01 0.000000000000000000e+00
2.149833333333328600e+00 2.096637140924349296e+01 7.884362380125650716e-02 0.000000000000000000e+00
2.159962962962958422e+00 2.066979889937551462e+01 1.066360423574625599e-01 0.000000000000000000e+00
2.170092592592587799e+00 2.049372472563391412e+01 2.723905102588016283e-02 0.000000000000000000e+00
2.180222222222217621e+00 2.071754540245537868e+01 8.712314443985513801e-02 0.000000000000000000e+00
2.190351851851846998e+00 2.070059986944007591e+01 4.686697569112341366e-02 0.000000000000000000e+00
2.200481481481476820e+00 2.068774520335114886e+01 1.930167893010281688e-02 0.000000000000000000e+00
2.210611111111106197e+00 2.057535855310699446e+01 1.616147927559855382e-03 0.000000000000000000e+00
2.220740740740736019e+00 2.048584717183674542e+01 4.396511037583299142e-02 0.000000000000000000e+00
2.230870370370365396e+00 2.035582810930448261e+01 6.716018259280169544e-02 0.000000000000000000e+00
2.240999999999995218e+00 2.027228979678247001e+01 1.224225547309906598e-01 0.000000000000000000e+00
2.251129629629624596e+00 2.023736064453118644e+01 2.370284249540194343e-02 0.000000000000000000e+00
2.261259259259254417e+00 2.015459724684888343e+01 3.102344947660285943e-02 0.000000000000000000e+00
2.271388888888883795e+00 2.004564570964166137e+01 8.054968788233443644e-02 0.000000000000000000e+00
2.281518518518513616e+00 1.996799820515581558e+01 1.253655490722875021e-01 0.000000000000000000e+00
2.291648148148142994e+00 1.993718871201742004e+01 3.190687784723690579e-02 0.000000000000000000e+00
2.301777777777772815e+00 1.983467813520236689e+01 1.316042366632603766e-01 0.000000000000000000e+00
2.311907407407402193e+00 1.971904931744448675e+01 9.250672025176853719e-02 0.000000000000000000e+00
2.322037037037032015e+00 1.964484732084440566e+01 1.645494324295282765e-02 0.000000000000000000e+00
2.332166666666661392e+00 1.951947944919297839e+01 3.684034696883783239e-02 0.000000000000000000e+00
2.342296296296291214e+00 1.949168606945334048e+01 1.069080304027532763e-01 0.000000000000000000e+00
2.352425925925920591e+00 1.941864212843728410e+01 8.484862288597377900e-02 0.000000000000000000e+00
2.362555555555550413e+00 1.930512479498905520e+01 1.086372344186296857e-01 0.000000000000000000e+00
2.372685185185179790e+00 1.924941100799776450e+01 2.312646126103940283e-02 0.000000000000000000e+00
2.382814814814809612e+00 1.915596833236145002e+01 9.595507684544758720e-02 0.000000000000000000e+00
2.392944444444438989e+00 1.907448534627077663e+01 6.837895935185354934e-02 0.000000000000000000e+00
2.403074074074068811e+00 1.895133088327527204e+01 6.609307553183811634e-02 0.000000000000000000e+00
2.413203703703698189e+00 1.895795141762299352e+01 8.641346197612011226e-02 0.000000000000000000e+00
2.423333333333328010e+00 1.879855050704018637e+01 9.313142101882690427e-02 0.000000000000000000e+00
2.433462962962957388e+00 1.875509737996190296e+01 5.466435472362411035e-02 0.000000000000000000e+00
2.443592592592587209e+00 1.866814227138056737e+01 3.628705699354186492e-02 0.000000000000000000e+00
2.453722222222216587e+00 1.861133074385301711e+01 8.581026099394302442e-02 0.000000000000000000e+00
2.463851851851846408e+00 1.853467934685295759e+01 1.128891550643666281e-01 0.000000000000000000e+00
2.473981481481475786e+00 1.848840566547497843e+01 4.971890388550119499e-02 0.000000000000000000e+00
2.484111111111105608e+00 1.839921685501828108e+01 9.484745128568618580e-03 0.000000000000000000e+00
2.494240740740734985e+00 1.837514266433590393e+01 3.877504461157513238e-02 0.000000000000000000e+00
2.504370370370364807e+00 1.823226124106959034e+01 1.076606694895822502e-01 0.000000000000000000e+00
2.514499999999994184e+00 1.812866063782021442e+01 2.814332447296136533e-02 0.000000000000000000e+00
2.524629629629624006e+00 1.815915981224016917e+01 1.634724296044802114e-02 0.000000000000000000e+00
2.534759259259253383e+00 1.802832139520974408e+01 1.103666641000337336e-03 0.000000000000000000e+00
2.544888888888883205e+00 1.792400714793917160e+01 2.712846229567041773e-02 0.000000000000000000e+00
2.555018518518512582e+00 1.779700356618991464e+01 1.002082319209472161e-01 0.000000000000000000e+00
2.565148148148142404e+00 1.780510682581801163e+01 8.822240938123731765e-03 0.000000000000000000e+00
2.575277777777771782e+00 1.767397255644900156e+01 6.159620475766325841e-03 0.000000000000000000e+00
2.585407407407401603e+00 1.763522846098865315e+01 8.479935416185151176e-02 0.000000000000000000e+00
2.595537037037030981e+00 1.753699287448555211e+01 9.748851468860499081e-02 0.000000000000000000e+00
2.605666666666660802e+00 1.748687352239158699e+01 5.447262999994720301e-02 0.000000000000000000e+00
